Date,Open,High,Low,Close,Volume,Dividends,Stock Splits
2024-01-02 00:00:00+11:00,0.7200000286102295,0.7250000238418579,0.6800000071525574,0.6800000071525574,96352,0.0,0.0
2024-01-03 00:00:00+11:00,0.6650000214576721,0.6899999976158142,0.6600000262260437,0.6899999976158142,26417,0.0,0.0
2024-01-04 00:00:00+11:00,0.6899999976158142,0.6899999976158142,0.6899999976158142,0.6899999976158142,0,0.0,0.0
2024-01-05 00:00:00+11:00,0.6800000071525574,0.6899999976158142,0.6600000262260437,0.6899999976158142,19625,0.0,0.0
2024-01-08 00:00:00+11:00,0.6800000071525574,0.699999988079071,0.675000011920929,0.6899999976158142,104814,0.0,0.0
2024-01-09 00:00:00+11:00,0.6650000214576721,0.6650000214576721,0.6650000214576721,0.6650000214576721,13838,0.0,0.0
2024-01-10 00:00:00+11:00,0.6600000262260437,0.6600000262260437,0.6499999761581421,0.6499999761581421,16026,0.0,0.0
2024-01-11 00:00:00+11:00,0.6499999761581421,0.6499999761581421,0.6499999761581421,0.6499999761581421,2000,0.0,0.0
2024-01-12 00:00:00+11:00,0.6499999761581421,0.6549999713897705,0.6499999761581421,0.6499999761581421,16224,0.0,0.0
2024-01-15 00:00:00+11:00,0.6499999761581421,0.6499999761581421,0.6499999761581421,0.6499999761581421,0,0.0,0.0
2024-01-16 00:00:00+11:00,0.6299999952316284,0.6299999952316284,0.6299999952316284,0.6299999952316284,38955,0.0,0.0
2024-01-17 00:00:00+11:00,0.6299999952316284,0.6299999952316284,0.6299999952316284,0.6299999952316284,0,0.0,0.0
2024-01-18 00:00:00+11:00,0.6299999952316284,0.6299999952316284,0.625,0.625,1100,0.0,0.0
2024-01-19 00:00:00+11:00,0.625,0.625,0.625,0.625,640,0.0,0.0
2024-01-22 00:00:00+11:00,0.6150000095367432,0.6150000095367432,0.5950000286102295,0.6000000238418579,11150,0.0,0.0
2024-01-23 00:00:00+11:00,0.5899999737739563,0.5899999737739563,0.5849999785423279,0.5849999785423279,5619,0.0,0.0
2024-01-24 00:00:00+11:00,0.5899999737739563,0.5899999737739563,0.5899999737739563,0.5899999737739563,21,0.0,0.0
2024-01-25 00:00:00+11:00,0.6000000238418579,0.6399999856948853,0.6000000238418579,0.6150000095367432,21894,0.0,0.0
2024-01-29 00:00:00+11:00,0.6150000095367432,0.6150000095367432,0.6150000095367432,0.6150000095367432,0,0.0,0.0
2024-01-30 00:00:00+11:00,0.5699999928474426,0.5849999785423279,0.5699999928474426,0.5699999928474426,7500,0.0,0.0
2024-01-31 00:00:00+11:00,0.5699999928474426,0.5699999928474426,0.5699999928474426,0.5699999928474426,0,0.0,0.0
2024-02-01 00:00:00+11:00,0.5699999928474426,0.5699999928474426,0.5699999928474426,0.5699999928474426,0,0.0,0.0
2024-02-02 00:00:00+11:00,0.5699999928474426,0.5699999928474426,0.5649999976158142,0.5649999976158142,1001,0.0,0.0
2024-02-05 00:00:00+11:00,0.5550000071525574,0.5550000071525574,0.5550000071525574,0.5550000071525574,1930,0.0,0.0
2024-02-06 00:00:00+11:00,0.5600000023841858,0.5600000023841858,0.5600000023841858,0.5600000023841858,88,0.0,0.0
2024-02-07 00:00:00+11:00,0.5600000023841858,0.5600000023841858,0.5600000023841858,0.5600000023841858,0,0.0,0.0
2024-02-08 00:00:00+11:00,0.5600000023841858,0.5600000023841858,0.5600000023841858,0.5600000023841858,0,0.0,0.0
2024-02-09 00:00:00+11:00,0.5,0.5149999856948853,0.5,0.5149999856948853,12135,0.0,0.0
2024-02-12 00:00:00+11:00,0.5299999713897705,0.5299999713897705,0.5299999713897705,0.5299999713897705,8538,0.0,0.0
2024-02-13 00:00:00+11:00,0.550000011920929,0.6349999904632568,0.5450000166893005,0.6200000047683716,58627,0.0,0.0
2024-02-14 00:00:00+11:00,0.6100000143051147,0.6100000143051147,0.5699999928474426,0.6100000143051147,21550,0.0,0.0
2024-02-15 00:00:00+11:00,0.6100000143051147,0.6100000143051147,0.5899999737739563,0.5899999737739563,25828,0.0,0.0
2024-02-16 00:00:00+11:00,0.5899999737739563,0.6349999904632568,0.5899999737739563,0.6200000047683716,93378,0.0,0.0
2024-02-19 00:00:00+11:00,0.6299999952316284,0.6399999856948853,0.625,0.6399999856948853,66606,0.0,0.0
2024-02-20 00:00:00+11:00,0.6399999856948853,0.6399999856948853,0.6399999856948853,0.6399999856948853,7575,0.0,0.0
2024-02-21 00:00:00+11:00,0.6399999856948853,0.6399999856948853,0.6399999856948853,0.6399999856948853,0,0.0,0.0
2024-02-22 00:00:00+11:00,0.6000000238418579,0.6200000047683716,0.6000000238418579,0.6200000047683716,15842,0.0,0.0
2024-02-23 00:00:00+11:00,0.6000000238418579,0.6000000238418579,0.6000000238418579,0.6000000238418579,5000,0.0,0.0
2024-02-26 00:00:00+11:00,0.6000000238418579,0.6000000238418579,0.6000000238418579,0.6000000238418579,12161,0.0,0.0
2024-02-27 00:00:00+11:00,0.6000000238418579,0.6000000238418579,0.6000000238418579,0.6000000238418579,7500,0.0,0.0
2024-02-28 00:00:00+11:00,0.5950000286102295,0.5950000286102295,0.5899999737739563,0.5899999737739563,25040,0.0,0.0
2024-02-29 00:00:00+11:00,0.6000000238418579,0.6150000095367432,0.6000000238418579,0.6100000143051147,18620,0.0,0.0
2024-03-01 00:00:00+11:00,0.6100000143051147,0.6100000143051147,0.6100000143051147,0.6100000143051147,2672,0.0,0.0
2024-03-04 00:00:00+11:00,0.6000000238418579,0.6000000238418579,0.5950000286102295,0.5950000286102295,5607,0.0,0.0
2024-03-05 00:00:00+11:00,0.5950000286102295,0.6100000143051147,0.5799999833106995,0.5799999833106995,108348,0.0,0.0
2024-03-06 00:00:00+11:00,0.5799999833106995,0.5799999833106995,0.5600000023841858,0.5600000023841858,20081,0.0,0.0
2024-03-07 00:00:00+11:00,0.5849999785423279,0.6150000095367432,0.5849999785423279,0.6150000095367432,10743,0.0,0.0
2024-03-08 00:00:00+11:00,0.6150000095367432,0.6150000095367432,0.6150000095367432,0.6150000095367432,0,0.0,0.0
2024-03-11 00:00:00+11:00,0.6150000095367432,0.6150000095367432,0.6150000095367432,0.6150000095367432,2500,0.0,0.0
2024-03-12 00:00:00+11:00,0.6150000095367432,0.6150000095367432,0.6150000095367432,0.6150000095367432,0,0.0,0.0
2024-03-13 00:00:00+11:00,0.6349999904632568,0.6349999904632568,0.6349999904632568,0.6349999904632568,15254,0.0,0.0
2024-03-14 00:00:00+11:00,0.5899999737739563,0.5899999737739563,0.5849999785423279,0.5849999785423279,551,0.0,0.0
2024-03-15 00:00:00+11:00,0.6100000143051147,0.6100000143051147,0.6100000143051147,0.6100000143051147,1795,0.0,0.0
2024-03-18 00:00:00+11:00,0.6100000143051147,0.6100000143051147,0.6100000143051147,0.6100000143051147,14999,0.0,0.0
2024-03-19 00:00:00+11:00,0.6100000143051147,0.6100000143051147,0.6100000143051147,0.6100000143051147,0,0.0,0.0
2024-03-20 00:00:00+11:00,0.6100000143051147,0.6100000143051147,0.5699999928474426,0.5699999928474426,7229,0.0,0.0
2024-03-21 00:00:00+11:00,0.5699999928474426,0.5699999928474426,0.5649999976158142,0.5699999928474426,14111,0.0,0.0
2024-03-22 00:00:00+11:00,0.5699999928474426,0.5699999928474426,0.5600000023841858,0.5600000023841858,31849,0.0,0.0
2024-03-25 00:00:00+11:00,0.5600000023841858,0.5600000023841858,0.550000011920929,0.550000011920929,10000,0.0,0.0
2024-03-26 00:00:00+11:00,0.550000011920929,0.550000011920929,0.550000011920929,0.550000011920929,0,0.0,0.0
2024-03-27 00:00:00+11:00,0.5649999976158142,0.574999988079071,0.5649999976158142,0.574999988079071,16669,0.0,0.0
2024-03-28 00:00:00+11:00,0.574999988079071,0.574999988079071,0.574999988079071,0.574999988079071,5502,0.0,0.0
2024-04-02 00:00:00+11:00,0.5649999976158142,0.5799999833106995,0.5649999976158142,0.574999988079071,114778,0.0,0.0
2024-04-03 00:00:00+11:00,0.574999988079071,0.574999988079071,0.574999988079071,0.574999988079071,0,0.0,0.0
2024-04-04 00:00:00+11:00,0.574999988079071,0.574999988079071,0.574999988079071,0.574999988079071,0,0.0,0.0
2024-04-05 00:00:00+11:00,0.5799999833106995,0.5799999833106995,0.5799999833106995,0.5799999833106995,2000,0.0,0.0
2024-04-08 00:00:00+10:00,0.5799999833106995,0.5799999833106995,0.5799999833106995,0.5799999833106995,1500,0.0,0.0
2024-04-09 00:00:00+10:00,0.5799999833106995,0.5799999833106995,0.574999988079071,0.574999988079071,15170,0.0,0.0
2024-04-10 00:00:00+10:00,0.5799999833106995,0.5799999833106995,0.574999988079071,0.574999988079071,8414,0.0,0.0
2024-04-11 00:00:00+10:00,0.574999988079071,0.574999988079071,0.574999988079071,0.574999988079071,0,0.0,0.0
2024-04-12 00:00:00+10:00,0.5799999833106995,0.6000000238418579,0.5550000071525574,0.6000000238418579,5525,0.0,0.0
2024-04-15 00:00:00+10:00,0.6000000238418579,0.6000000238418579,0.6000000238418579,0.6000000238418579,0,0.0,0.0
2024-04-16 00:00:00+10:00,0.6000000238418579,0.6000000238418579,0.6000000238418579,0.6000000238418579,0,0.0,0.0
2024-04-17 00:00:00+10:00,0.6000000238418579,0.6000000238418579,0.6000000238418579,0.6000000238418579,0,0.0,0.0
2024-04-18 00:00:00+10:00,0.5699999928474426,0.5699999928474426,0.5699999928474426,0.5699999928474426,1000,0.0,0.0
2024-04-19 00:00:00+10:00,0.5699999928474426,0.5699999928474426,0.5699999928474426,0.5699999928474426,0,0.0,0.0
2024-04-22 00:00:00+10:00,0.5649999976158142,0.5799999833106995,0.5600000023841858,0.5600000023841858,10352,0.0,0.0
2024-04-23 00:00:00+10:00,0.5699999928474426,0.5849999785423279,0.5699999928474426,0.5849999785423279,21177,0.0,0.0
2024-04-24 00:00:00+10:00,0.5899999737739563,0.6150000095367432,0.5899999737739563,0.6100000143051147,42529,0.0,0.0
2024-04-26 00:00:00+10:00,0.6150000095367432,0.6150000095367432,0.6150000095367432,0.6150000095367432,1634,0.0,0.0
2024-04-29 00:00:00+10:00,0.6150000095367432,0.6150000095367432,0.6150000095367432,0.6150000095367432,0,0.0,0.0
2024-04-30 00:00:00+10:00,0.6200000047683716,0.6200000047683716,0.6200000047683716,0.6200000047683716,8064,0.0,0.0
2024-05-01 00:00:00+10:00,0.6050000190734863,0.6100000143051147,0.6050000190734863,0.6100000143051147,16393,0.0,0.0
2024-05-02 00:00:00+10:00,0.6100000143051147,0.6100000143051147,0.6000000238418579,0.6100000143051147,18816,0.0,0.0
2024-05-03 00:00:00+10:00,0.6000000238418579,0.625,0.6000000238418579,0.6100000143051147,33488,0.0,0.0
2024-05-06 00:00:00+10:00,0.6000000238418579,0.6000000238418579,0.6000000238418579,0.6000000238418579,9078,0.0,0.0
2024-05-07 00:00:00+10:00,0.6000000238418579,0.6000000238418579,0.5649999976158142,0.5649999976158142,13525,0.0,0.0
2024-05-08 00:00:00+10:00,0.5649999976158142,0.5649999976158142,0.5649999976158142,0.5649999976158142,0,0.0,0.0
2024-05-09 00:00:00+10:00,0.5649999976158142,0.5649999976158142,0.5600000023841858,0.5600000023841858,11999,0.0,0.0
2024-05-10 00:00:00+10:00,0.5600000023841858,0.5600000023841858,0.5600000023841858,0.5600000023841858,0,0.0,0.0
2024-05-13 00:00:00+10:00,0.5600000023841858,0.5600000023841858,0.5600000023841858,0.5600000023841858,25051,0.0,0.0
2024-05-14 00:00:00+10:00,0.5600000023841858,0.5600000023841858,0.5550000071525574,0.5600000023841858,41000,0.0,0.0
2024-05-15 00:00:00+10:00,0.5600000023841858,0.5600000023841858,0.550000011920929,0.550000011920929,62392,0.0,0.0
2024-05-16 00:00:00+10:00,0.5600000023841858,0.5600000023841858,0.5199999809265137,0.5550000071525574,59325,0.0,0.0
2024-05-17 00:00:00+10:00,0.5550000071525574,0.5600000023841858,0.5550000071525574,0.5600000023841858,11006,0.0,0.0
2024-05-20 00:00:00+10:00,0.5600000023841858,0.5600000023841858,0.550000011920929,0.550000011920929,62408,0.0,0.0
2024-05-21 00:00:00+10:00,0.550000011920929,0.550000011920929,0.550000011920929,0.550000011920929,0,0.0,0.0
2024-05-22 00:00:00+10:00,0.5799999833106995,0.5799999833106995,0.5799999833106995,0.5799999833106995,2000,0.0,0.0
2024-05-23 00:00:00+10:00,0.6100000143051147,0.6100000143051147,0.550000011920929,0.550000011920929,11806,0.0,0.0
2024-05-24 00:00:00+10:00,0.5950000286102295,0.6100000143051147,0.5950000286102295,0.6050000190734863,41259,0.0,0.0
2024-05-27 00:00:00+10:00,0.6100000143051147,0.6100000143051147,0.6100000143051147,0.6100000143051147,10833,0.0,0.0
2024-05-28 00:00:00+10:00,0.6100000143051147,0.6100000143051147,0.5950000286102295,0.5950000286102295,51123,0.0,0.0
2024-05-29 00:00:00+10:00,0.5950000286102295,0.6200000047683716,0.5899999737739563,0.5899999737739563,41015,0.0,0.0
2024-05-30 00:00:00+10:00,0.5950000286102295,0.6000000238418579,0.5950000286102295,0.6000000238418579,9068,0.0,0.0
2024-05-31 00:00:00+10:00,0.6000000238418579,0.6000000238418579,0.6000000238418579,0.6000000238418579,0,0.0,0.0
2024-06-03 00:00:00+10:00,0.6499999761581421,0.6499999761581421,0.6499999761581421,0.6499999761581421,2000,0.0,0.0
2024-06-04 00:00:00+10:00,0.800000011920929,0.8450000286102295,0.7099999785423279,0.7300000190734863,224868,0.0,0.0
2024-06-05 00:00:00+10:00,0.7549999952316284,0.7900000214576721,0.75,0.7699999809265137,96581,0.0,0.0
2024-06-06 00:00:00+10:00,0.800000011920929,0.8650000095367432,0.7799999713897705,0.800000011920929,202118,0.0,0.0
2024-06-07 00:00:00+10:00,0.8700000047683716,0.8700000047683716,0.7300000190734863,0.7300000190734863,53580,0.0,0.0
2024-06-11 00:00:00+10:00,0.7749999761581421,0.800000011920929,0.75,0.800000011920929,55317,0.0,0.0
2024-06-12 00:00:00+10:00,0.8299999833106995,0.8299999833106995,0.7400000095367432,0.7400000095367432,55944,0.0,0.0
2024-06-13 00:00:00+10:00,0.7300000190734863,0.7300000190734863,0.7099999785423279,0.7099999785423279,22210,0.0,0.0
2024-06-14 00:00:00+10:00,0.7200000286102295,0.7200000286102295,0.7200000286102295,0.7200000286102295,700,0.0,0.0
2024-06-17 00:00:00+10:00,0.7200000286102295,0.7450000047683716,0.7200000286102295,0.7250000238418579,10431,0.0,0.0
2024-06-18 00:00:00+10:00,0.7400000095367432,0.7400000095367432,0.7250000238418579,0.7250000238418579,1212,0.0,0.0
2024-06-19 00:00:00+10:00,0.7250000238418579,0.7599999904632568,0.7200000286102295,0.7350000143051147,14570,0.0,0.0
2024-06-20 00:00:00+10:00,0.7549999952316284,0.7599999904632568,0.7275000214576721,0.7450000047683716,3051,0.0,0.0
2024-06-21 00:00:00+10:00,0.7599999904632568,0.7649999856948853,0.7599999904632568,0.7649999856948853,118127,0.0,0.0
2024-06-24 00:00:00+10:00,0.7699999809265137,0.7699999809265137,0.7350000143051147,0.7599999904632568,15854,0.0,0.0
2024-06-25 00:00:00+10:00,0.7425000071525574,0.7425000071525574,0.7425000071525574,0.7425000071525574,2,0.0,0.0
2024-06-26 00:00:00+10:00,0.7549999952316284,0.7599999904632568,0.7300000190734863,0.7599999904632568,11759,0.0,0.0
2024-06-27 00:00:00+10:00,0.7599999904632568,0.7599999904632568,0.7250000238418579,0.7599999904632568,18005,0.0,0.0
2024-06-28 00:00:00+10:00,0.7599999904632568,0.7599999904632568,0.7599999904632568,0.7599999904632568,0,0.0,0.0
2024-07-01 00:00:00+10:00,0.7549999952316284,0.7549999952316284,0.7549999952316284,0.7549999952316284,1100,0.0,0.0
2024-07-02 00:00:00+10:00,0.7549999952316284,0.7549999952316284,0.7549999952316284,0.7549999952316284,19652,0.0,0.0
2024-07-03 00:00:00+10:00,0.7400000095367432,0.7400000095367432,0.7200000286102295,0.7200000286102295,13499,0.0,0.0
2024-07-04 00:00:00+10:00,0.7250000238418579,0.7250000238418579,0.7250000238418579,0.7250000238418579,6500,0.0,0.0
2024-07-05 00:00:00+10:00,0.7300000190734863,0.7300000190734863,0.7200000286102295,0.7200000286102295,6690,0.0,0.0
2024-07-08 00:00:00+10:00,0.699999988079071,0.7049999833106995,0.699999988079071,0.7049999833106995,4149,0.0,0.0
2024-07-09 00:00:00+10:00,0.699999988079071,0.699999988079071,0.699999988079071,0.699999988079071,6988,0.0,0.0
2024-07-10 00:00:00+10:00,0.7099999785423279,0.7099999785423279,0.7099999785423279,0.7099999785423279,700,0.0,0.0
2024-07-11 00:00:00+10:00,0.7149999737739563,0.7149999737739563,0.699999988079071,0.699999988079071,18916,0.0,0.0
2024-07-12 00:00:00+10:00,0.699999988079071,0.7300000190734863,0.699999988079071,0.7300000190734863,65833,0.0,0.0
2024-07-15 00:00:00+10:00,0.7200000286102295,0.7450000047683716,0.7200000286102295,0.7450000047683716,13133,0.0,0.0
2024-07-16 00:00:00+10:00,0.75,0.7524999976158142,0.7149999737739563,0.7149999737739563,6377,0.0,0.0
2024-07-17 00:00:00+10:00,0.7200000286102295,0.7200000286102295,0.699999988079071,0.699999988079071,22069,0.0,0.0
2024-07-18 00:00:00+10:00,0.7200000286102295,0.7200000286102295,0.7200000286102295,0.7200000286102295,500,0.0,0.0
2024-07-19 00:00:00+10:00,0.7250000238418579,0.7250000238418579,0.7250000238418579,0.7250000238418579,6000,0.0,0.0
2024-07-22 00:00:00+10:00,0.7200000286102295,0.7200000286102295,0.699999988079071,0.7049999833106995,19404,0.0,0.0
2024-07-23 00:00:00+10:00,0.7099999785423279,0.7099999785423279,0.699999988079071,0.699999988079071,3332,0.0,0.0
2024-07-24 00:00:00+10:00,0.699999988079071,0.7099999785423279,0.699999988079071,0.7099999785423279,13630,0.0,0.0
2024-07-25 00:00:00+10:00,0.7099999785423279,0.7099999785423279,0.7099999785423279,0.7099999785423279,0,0.0,0.0
2024-07-26 00:00:00+10:00,0.6600000262260437,0.6600000262260437,0.6600000262260437,0.6600000262260437,1515,0.0,0.0
2024-07-29 00:00:00+10:00,0.6299999952316284,0.6299999952316284,0.6299999952316284,0.6299999952316284,262,0.0,0.0
2024-07-30 00:00:00+10:00,0.6299999952316284,0.6299999952316284,0.6299999952316284,0.6299999952316284,0,0.0,0.0
2024-07-31 00:00:00+10:00,0.6000000238418579,0.6200000047683716,0.6000000238418579,0.6000000238418579,30344,0.0,0.0
2024-08-01 00:00:00+10:00,0.6000000238418579,0.6000000238418579,0.6000000238418579,0.6000000238418579,0,0.0,0.0
2024-08-02 00:00:00+10:00,0.6349999904632568,0.6499999761581421,0.6349999904632568,0.6499999761581421,19022,0.0,0.0
2024-08-05 00:00:00+10:00,0.6800000071525574,0.6800000071525574,0.675000011920929,0.675000011920929,2794,0.0,0.0
2024-08-06 00:00:00+10:00,0.675000011920929,0.675000011920929,0.6700000166893005,0.6700000166893005,7095,0.0,0.0
2024-08-07 00:00:00+10:00,0.675000011920929,0.675000011920929,0.675000011920929,0.675000011920929,9725,0.0,0.0
2024-08-08 00:00:00+10:00,0.6349999904632568,0.6349999904632568,0.6349999904632568,0.6349999904632568,9999,0.0,0.0
2024-08-09 00:00:00+10:00,0.6299999952316284,0.6299999952316284,0.6299999952316284,0.6299999952316284,4673,0.0,0.0
2024-08-12 00:00:00+10:00,0.6299999952316284,0.6299999952316284,0.6299999952316284,0.6299999952316284,0,0.0,0.0
2024-08-13 00:00:00+10:00,0.6349999904632568,0.6349999904632568,0.6349999904632568,0.6349999904632568,3418,0.0,0.0
2024-08-14 00:00:00+10:00,0.6499999761581421,0.6499999761581421,0.6200000047683716,0.6200000047683716,11001,0.0,0.0
2024-08-15 00:00:00+10:00,0.6200000047683716,0.6200000047683716,0.6200000047683716,0.6200000047683716,0,0.0,0.0
2024-08-16 00:00:00+10:00,0.6399999856948853,0.6399999856948853,0.625,0.625,2021,0.0,0.0
2024-08-19 00:00:00+10:00,0.6399999856948853,0.675000011920929,0.6399999856948853,0.675000011920929,10328,0.0,0.0
2024-08-20 00:00:00+10:00,0.675000011920929,0.6949999928474426,0.6700000166893005,0.6949999928474426,11335,0.0,0.0
2024-08-21 00:00:00+10:00,0.699999988079071,0.7099999785423279,0.699999988079071,0.699999988079071,6432,0.0,0.0
2024-08-22 00:00:00+10:00,0.75,0.75,0.7300000190734863,0.7300000190734863,8924,0.0,0.0
2024-08-23 00:00:00+10:00,0.7300000190734863,0.7300000190734863,0.699999988079071,0.699999988079071,32261,0.0,0.0
2024-08-26 00:00:00+10:00,0.699999988079071,0.7099999785423279,0.699999988079071,0.7099999785423279,29348,0.0,0.0
2024-08-27 00:00:00+10:00,0.7300000190734863,0.75,0.7300000190734863,0.75,30290,0.0,0.0
2024-08-28 00:00:00+10:00,0.75,0.75,0.7300000190734863,0.7300000190734863,12445,0.0,0.0
2024-08-29 00:00:00+10:00,0.75,0.7599999904632568,0.7350000143051147,0.7350000143051147,33920,0.0,0.0
2024-08-30 00:00:00+10:00,0.7400000095367432,0.75,0.7400000095367432,0.75,33487,0.0,0.0
2024-09-02 00:00:00+10:00,0.7400000095367432,0.7400000095367432,0.7300000190734863,0.7325000166893005,9001,0.0,0.0
2024-09-03 00:00:00+10:00,0.7300000190734863,0.75,0.7300000190734863,0.7350000143051147,30070,0.0,0.0
2024-09-04 00:00:00+10:00,0.7549999952316284,0.7599999904632568,0.75,0.75,15240,0.0,0.0
2024-09-05 00:00:00+10:00,0.75,0.75,0.75,0.75,1000,0.0,0.0
2024-09-06 00:00:00+10:00,0.75,0.75,0.7300000190734863,0.75,50500,0.0,0.0
2024-09-09 00:00:00+10:00,0.7300000190734863,0.7300000190734863,0.7300000190734863,0.7300000190734863,52688,0.0,0.0
2024-09-10 00:00:00+10:00,0.7300000190734863,0.7350000143051147,0.7300000190734863,0.7300000190734863,53831,0.0,0.0
2024-09-11 00:00:00+10:00,0.7300000190734863,0.7300000190734863,0.699999988079071,0.699999988079071,13589,0.0,0.0
2024-09-12 00:00:00+10:00,0.7350000143051147,0.7350000143051147,0.7350000143051147,0.7350000143051147,680,0.0,0.0
2024-09-13 00:00:00+10:00,0.7400000095367432,0.7400000095367432,0.7400000095367432,0.7400000095367432,775,0.0,0.0
2024-09-16 00:00:00+10:00,0.7350000143051147,0.7350000143051147,0.7350000143051147,0.7350000143051147,725,0.0,0.0
2024-09-17 00:00:00+10:00,0.7350000143051147,0.7350000143051147,0.7350000143051147,0.7350000143051147,0,0.0,0.0
2024-09-18 00:00:00+10:00,0.7350000143051147,0.7350000143051147,0.7350000143051147,0.7350000143051147,0,0.0,0.0
2024-09-19 00:00:00+10:00,0.699999988079071,0.7200000286102295,0.699999988079071,0.7200000286102295,14750,0.0,0.0
2024-09-20 00:00:00+10:00,0.7300000190734863,0.7300000190734863,0.7300000190734863,0.7300000190734863,1000,0.0,0.0
2024-09-23 00:00:00+10:00,0.7599999904632568,0.7599999904632568,0.7599999904632568,0.7599999904632568,285,0.0,0.0
2024-09-24 00:00:00+10:00,0.7400000095367432,0.75,0.7200000286102295,0.75,6673,0.0,0.0
2024-09-25 00:00:00+10:00,0.7300000190734863,0.7549999952316284,0.7300000190734863,0.7549999952316284,5875,0.0,0.0
2024-09-26 00:00:00+10:00,0.7350000143051147,0.800000011920929,0.7350000143051147,0.7950000166893005,29057,0.0,0.0
2024-09-27 00:00:00+10:00,0.800000011920929,0.8199999928474426,0.800000011920929,0.800000011920929,37499,0.0,0.0
2024-09-30 00:00:00+10:00,0.800000011920929,0.8199999928474426,0.800000011920929,0.8199999928474426,20538,0.0,0.0
2024-10-01 00:00:00+10:00,0.8199999928474426,0.8199999928474426,0.7599999904632568,0.7599999904632568,4504,0.0,0.0
2024-10-02 00:00:00+10:00,0.7799999713897705,0.7799999713897705,0.7599999904632568,0.7599999904632568,1064,0.0,0.0
2024-10-03 00:00:00+10:00,0.7649999856948853,0.7649999856948853,0.7649999856948853,0.7649999856948853,1998,0.0,0.0
2024-10-04 00:00:00+10:00,0.7649999856948853,0.7649999856948853,0.7649999856948853,0.7649999856948853,0,0.0,0.0
2024-10-07 00:00:00+11:00,0.7850000262260437,0.7850000262260437,0.7649999856948853,0.7649999856948853,566,0.0,0.0
2024-10-08 00:00:00+11:00,0.7850000262260437,0.7850000262260437,0.7599999904632568,0.7599999904632568,8797,0.0,0.0
2024-10-09 00:00:00+11:00,0.7599999904632568,0.7699999809265137,0.7599999904632568,0.7699999809265137,6954,0.0,0.0
2024-10-10 00:00:00+11:00,0.7599999904632568,0.7599999904632568,0.7599999904632568,0.7599999904632568,146,0.0,0.0
2024-10-11 00:00:00+11:00,0.7699999809265137,0.7699999809265137,0.7699999809265137,0.7699999809265137,1320,0.0,0.0
2024-10-14 00:00:00+11:00,0.7678380012512207,0.7678380012512207,0.7478939890861511,0.7478939890861511,1880,0.0,0.0
2024-10-15 00:00:00+11:00,0.7478939890861511,0.7478939890861511,0.7478939890861511,0.7478939890861511,0,0.0,0.0
2024-10-16 00:00:00+11:00,0.7478939890861511,0.7478939890861511,0.7478939890861511,0.7478939890861511,0,0.0,0.0
2024-10-17 00:00:00+11:00,0.7129920125007629,0.7478939890861511,0.67808997631073,0.67808997631073,49783,0.0,0.0
2024-10-18 00:00:00+11:00,0.6880620121955872,0.6930480003356934,0.683076024055481,0.683076024055481,124732,0.0,0.0
2024-10-21 00:00:00+11:00,0.6800000071525574,0.6850000023841858,0.6200000047683716,0.6200000047683716,23548,0.0,0.0
2024-10-22 00:00:00+11:00,0.6200000047683716,0.6600000262260437,0.6200000047683716,0.6600000262260437,43606,0.0,0.0
2024-10-23 00:00:00+11:00,0.6549999713897705,0.6549999713897705,0.6549999713897705,0.6549999713897705,6730,0.0,0.0
2024-10-24 00:00:00+11:00,0.6549999713897705,0.6549999713897705,0.6449999809265137,0.6449999809265137,18884,0.0,0.0
2024-10-25 00:00:00+11:00,0.6449999809265137,0.6449999809265137,0.6449999809265137,0.6449999809265137,0,0.0,0.0
2024-10-28 00:00:00+11:00,0.6499999761581421,0.6499999761581421,0.6499999761581421,0.6499999761581421,7000,0.0,0.0
2024-10-29 00:00:00+11:00,0.6499999761581421,0.6499999761581421,0.6499999761581421,0.6499999761581421,0,0.0,0.0
2024-10-30 00:00:00+11:00,0.6700000166893005,0.6700000166893005,0.6700000166893005,0.6700000166893005,15000,0.0,0.0
2024-10-31 00:00:00+11:00,0.675000011920929,0.6949999928474426,0.675000011920929,0.6949999928474426,15105,0.0,0.0
2024-11-01 00:00:00+11:00,0.699999988079071,0.699999988079071,0.675000011920929,0.675000011920929,5537,0.0,0.0
2024-11-04 00:00:00+11:00,0.6499999761581421,0.6499999761581421,0.6449999809265137,0.6449999809265137,14632,0.0,0.0
2024-11-05 00:00:00+11:00,0.6449999809265137,0.6449999809265137,0.6449999809265137,0.6449999809265137,2315,0.0,0.0
2024-11-06 00:00:00+11:00,0.6449999809265137,0.6600000262260437,0.6449999809265137,0.6449999809265137,2026,0.0,0.0
2024-11-07 00:00:00+11:00,0.6449999809265137,0.6549999713897705,0.6449999809265137,0.6449999809265137,43949,0.0,0.0
2024-11-08 00:00:00+11:00,0.6499999761581421,0.6549999713897705,0.6449999809265137,0.6449999809265137,80793,0.0,0.0
2024-11-11 00:00:00+11:00,0.6549999713897705,0.6549999713897705,0.6549999713897705,0.6549999713897705,8593,0.0,0.0
2024-11-12 00:00:00+11:00,0.6499999761581421,0.6499999761581421,0.6449999809265137,0.6499999761581421,102846,0.0,0.0
2024-11-13 00:00:00+11:00,0.6499999761581421,0.6499999761581421,0.6399999856948853,0.6499999761581421,19909,0.0,0.0
2024-11-14 00:00:00+11:00,0.6499999761581421,0.6499999761581421,0.6499999761581421,0.6499999761581421,159,0.0,0.0
2024-11-15 00:00:00+11:00,0.6499999761581421,0.6499999761581421,0.6499999761581421,0.6499999761581421,0,0.0,0.0
2024-11-18 00:00:00+11:00,0.6399999856948853,0.6650000214576721,0.6399999856948853,0.6499999761581421,26510,0.0,0.0
2024-11-19 00:00:00+11:00,0.6600000262260437,0.6600000262260437,0.6499999761581421,0.6499999761581421,9405,0.0,0.0
2024-11-20 00:00:00+11:00,0.6499999761581421,0.6499999761581421,0.6499999761581421,0.6499999761581421,26728,0.0,0.0
2024-11-21 00:00:00+11:00,0.6499999761581421,0.6499999761581421,0.6499999761581421,0.6499999761581421,0,0.0,0.0
2024-11-22 00:00:00+11:00,0.6449999809265137,0.6499999761581421,0.6449999809265137,0.6499999761581421,39920,0.0,0.0
2024-11-25 00:00:00+11:00,0.6499999761581421,0.6499999761581421,0.6000000238418579,0.6200000047683716,57579,0.0,0.0
2024-11-26 00:00:00+11:00,0.6499999761581421,0.6499999761581421,0.6499999761581421,0.6499999761581421,3825,0.0,0.0
2024-11-27 00:00:00+11:00,0.6100000143051147,0.6100000143051147,0.6100000143051147,0.6100000143051147,750,0.0,0.0
2024-11-28 00:00:00+11:00,0.6150000095367432,0.6150000095367432,0.6150000095367432,0.6150000095367432,1625,0.0,0.0
2024-11-29 00:00:00+11:00,0.6150000095367432,0.6150000095367432,0.6150000095367432,0.6150000095367432,1097,0.0,0.0
2024-12-02 00:00:00+11:00,0.6499999761581421,0.6499999761581421,0.6299999952316284,0.6299999952316284,4083,0.0,0.0
2024-12-03 00:00:00+11:00,0.6299999952316284,0.6499999761581421,0.6299999952316284,0.6499999761581421,66417,0.0,0.0
2024-12-04 00:00:00+11:00,0.6299999952316284,0.6299999952316284,0.550000011920929,0.550000011920929,59501,0.0,0.0
2024-12-05 00:00:00+11:00,0.6000000238418579,0.6000000238418579,0.6000000238418579,0.6000000238418579,2028,0.0,0.0
2024-12-06 00:00:00+11:00,0.6000000238418579,0.6000000238418579,0.6000000238418579,0.6000000238418579,0,0.0,0.0
2024-12-09 00:00:00+11:00,0.6100000143051147,0.6399999856948853,0.6000000238418579,0.6100000143051147,49879,0.0,0.0
2024-12-10 00:00:00+11:00,0.6499999761581421,0.6650000214576721,0.6499999761581421,0.6650000214576721,31140,0.0,0.0
2024-12-11 00:00:00+11:00,0.6899999976158142,0.6899999976158142,0.6349999904632568,0.6349999904632568,27616,0.0,0.0
2024-12-12 00:00:00+11:00,0.6299999952316284,0.6299999952316284,0.6299999952316284,0.6299999952316284,4896,0.0,0.0
2024-12-13 00:00:00+11:00,0.6299999952316284,0.6299999952316284,0.6299999952316284,0.6299999952316284,800,0.0,0.0
2024-12-16 00:00:00+11:00,0.625,0.625,0.625,0.625,3300,0.0,0.0
2024-12-17 00:00:00+11:00,0.625,0.625,0.625,0.625,0,0.0,0.0
2024-12-18 00:00:00+11:00,0.6200000047683716,0.625,0.6200000047683716,0.6200000047683716,12210,0.0,0.0
2024-12-19 00:00:00+11:00,0.625,0.625,0.625,0.625,800,0.0,0.0
2024-12-20 00:00:00+11:00,0.6399999856948853,0.6399999856948853,0.6200000047683716,0.6200000047683716,389,0.0,0.0
2024-12-23 00:00:00+11:00,0.6200000047683716,0.6200000047683716,0.6200000047683716,0.6200000047683716,1000,0.0,0.0
2024-12-24 00:00:00+11:00,0.6150000095367432,0.6150000095367432,0.6150000095367432,0.6150000095367432,2601,0.0,0.0
2024-12-27 00:00:00+11:00,0.6050000190734863,0.6100000143051147,0.6050000190734863,0.6100000143051147,660,0.0,0.0
2024-12-30 00:00:00+11:00,0.6000000238418579,0.6000000238418579,0.5899999737739563,0.5950000286102295,11094,0.0,0.0
2024-12-31 00:00:00+11:00,0.5924999713897705,0.5950000286102295,0.5924999713897705,0.5950000286102295,10000,0.0,0.0
2025-01-02 00:00:00+11:00,0.5950000286102295,0.5950000286102295,0.5950000286102295,0.5950000286102295,0,0.0,0.0
2025-01-03 00:00:00+11:00,0.5950000286102295,0.6000000238418579,0.5950000286102295,0.6000000238418579,8808,0.0,0.0
2025-01-06 00:00:00+11:00,0.5950000286102295,0.5950000286102295,0.5799999833106995,0.5799999833106995,33422,0.0,0.0
2025-01-07 00:00:00+11:00,0.5799999833106995,0.5799999833106995,0.5799999833106995,0.5799999833106995,0,0.0,0.0
2025-01-08 00:00:00+11:00,0.5950000286102295,0.6200000047683716,0.5950000286102295,0.6000000238418579,5449,0.0,0.0
2025-01-09 00:00:00+11:00,0.6000000238418579,0.6000000238418579,0.6000000238418579,0.6000000238418579,472,0.0,0.0
2025-01-10 00:00:00+11:00,0.6000000238418579,0.6000000238418579,0.6000000238418579,0.6000000238418579,1005,0.0,0.0
2025-01-13 00:00:00+11:00,0.6000000238418579,0.6000000238418579,0.6000000238418579,0.6000000238418579,8154,0.0,0.0
2025-01-14 00:00:00+11:00,0.5950000286102295,0.6000000238418579,0.5899999737739563,0.6000000238418579,782,0.0,0.0
2025-01-15 00:00:00+11:00,0.6000000238418579,0.6000000238418579,0.6000000238418579,0.6000000238418579,1800,0.0,0.0
2025-01-16 00:00:00+11:00,0.6000000238418579,0.6000000238418579,0.6000000238418579,0.6000000238418579,0,0.0,0.0
2025-01-17 00:00:00+11:00,0.5849999785423279,0.5849999785423279,0.5799999833106995,0.5799999833106995,11554,0.0,0.0
2025-01-20 00:00:00+11:00,0.5799999833106995,0.5799999833106995,0.5799999833106995,0.5799999833106995,0,0.0,0.0
2025-01-21 00:00:00+11:00,0.5899999737739563,0.5899999737739563,0.5899999737739563,0.5899999737739563,5000,0.0,0.0
2025-01-22 00:00:00+11:00,0.5550000071525574,0.5649999976158142,0.550000011920929,0.5649999976158142,7990,0.0,0.0
2025-01-23 00:00:00+11:00,0.5899999737739563,0.6200000047683716,0.5899999737739563,0.6150000095367432,21611,0.0,0.0
2025-01-24 00:00:00+11:00,0.6200000047683716,0.6200000047683716,0.6000000238418579,0.6000000238418579,1248,0.0,0.0
2025-01-28 00:00:00+11:00,0.6050000190734863,0.6050000190734863,0.6000000238418579,0.6000000238418579,9228,0.0,0.0
2025-01-29 00:00:00+11:00,0.5799999833106995,0.5799999833106995,0.5699999928474426,0.5699999928474426,23710,0.0,0.0
2025-01-30 00:00:00+11:00,0.5625,0.5699999928474426,0.5625,0.5699999928474426,4736,0.0,0.0
2025-01-31 00:00:00+11:00,0.5674999952316284,0.5799999833106995,0.550000011920929,0.5600000023841858,34380,0.0,0.0
2025-02-03 00:00:00+11:00,0.5799999833106995,0.5799999833106995,0.5649999976158142,0.5649999976158142,10321,0.0,0.0
2025-02-04 00:00:00+11:00,0.5649999976158142,0.5649999976158142,0.5649999976158142,0.5649999976158142,0,0.0,0.0
2025-02-05 00:00:00+11:00,0.5649999976158142,0.5649999976158142,0.5649999976158142,0.5649999976158142,1000,0.0,0.0
2025-02-06 00:00:00+11:00,0.5799999833106995,0.6000000238418579,0.5799999833106995,0.6000000238418579,6628,0.0,0.0
2025-02-07 00:00:00+11:00,0.6000000238418579,0.6000000238418579,0.6000000238418579,0.6000000238418579,0,0.0,0.0
2025-02-10 00:00:00+11:00,0.6000000238418579,0.6000000238418579,0.6000000238418579,0.6000000238418579,0,0.0,0.0
2025-02-11 00:00:00+11:00,0.6000000238418579,0.6000000238418579,0.6000000238418579,0.6000000238418579,0,0.0,0.0
2025-02-12 00:00:00+11:00,0.6000000238418579,0.6000000238418579,0.6000000238418579,0.6000000238418579,0,0.0,0.0
2025-02-13 00:00:00+11:00,0.5799999833106995,0.5950000286102295,0.5799999833106995,0.5899999737739563,32310,0.0,0.0
2025-02-14 00:00:00+11:00,0.5899999737739563,0.5899999737739563,0.5899999737739563,0.5899999737739563,0,0.0,0.0
2025-02-17 00:00:00+11:00,0.5899999737739563,0.5899999737739563,0.5899999737739563,0.5899999737739563,0,0.0,0.0
2025-02-18 00:00:00+11:00,0.5899999737739563,0.6000000238418579,0.5899999737739563,0.6000000238418579,9610,0.0,0.0
2025-02-19 00:00:00+11:00,0.6050000190734863,0.6050000190734863,0.5899999737739563,0.5899999737739563,33040,0.0,0.0
2025-02-20 00:00:00+11:00,0.5799999833106995,0.5799999833106995,0.5600000023841858,0.5600000023841858,40257,0.0,0.0
2025-02-21 00:00:00+11:00,0.5649999976158142,0.5649999976158142,0.5099999904632568,0.5099999904632568,17667,0.0,0.0
2025-02-24 00:00:00+11:00,0.5299999713897705,0.5299999713897705,0.5299999713897705,0.5299999713897705,8092,0.0,0.0
2025-02-25 00:00:00+11:00,0.5049999952316284,0.5199999809265137,0.48500001430511475,0.5199999809265137,38483,0.0,0.0
2025-02-26 00:00:00+11:00,0.5199999809265137,0.5199999809265137,0.5199999809265137,0.5199999809265137,3371,0.0,0.0
2025-02-27 00:00:00+11:00,0.5199999809265137,0.5600000023841858,0.5199999809265137,0.5199999809265137,32985,0.0,0.0
2025-02-28 00:00:00+11:00,0.5199999809265137,0.5199999809265137,0.5199999809265137,0.5199999809265137,7499,0.0,0.0
2025-03-03 00:00:00+11:00,0.5199999809265137,0.5199999809265137,0.5199999809265137,0.5199999809265137,0,0.0,0.0
2025-03-04 00:00:00+11:00,0.5199999809265137,0.5199999809265137,0.5199999809265137,0.5199999809265137,0,0.0,0.0
2025-03-05 00:00:00+11:00,0.5099999904632568,0.5099999904632568,0.5,0.5099999904632568,20370,0.0,0.0
2025-03-06 00:00:00+11:00,0.4749999940395355,0.4749999940395355,0.4699999988079071,0.4699999988079071,10000,0.0,0.0
2025-03-07 00:00:00+11:00,0.4699999988079071,0.4699999988079071,0.4699999988079071,0.4699999988079071,6961,0.0,0.0
2025-03-10 00:00:00+11:00,0.4699999988079071,0.4699999988079071,0.4699999988079071,0.4699999988079071,0,0.0,0.0
2025-03-11 00:00:00+11:00,0.4699999988079071,0.4699999988079071,0.4699999988079071,0.4699999988079071,27000,0.0,0.0
2025-03-12 00:00:00+11:00,0.4699999988079071,0.4699999988079071,0.4699999988079071,0.4699999988079071,1050,0.0,0.0
2025-03-13 00:00:00+11:00,0.4699999988079071,0.5149999856948853,0.4699999988079071,0.5149999856948853,382512,0.0,0.0
2025-03-14 00:00:00+11:00,0.550000011920929,0.550000011920929,0.550000011920929,0.550000011920929,1754,0.0,0.0
2025-03-17 00:00:00+11:00,0.5799999833106995,0.6150000095367432,0.5799999833106995,0.6150000095367432,6276,0.0,0.0
2025-03-18 00:00:00+11:00,0.574999988079071,0.574999988079071,0.5649999976158142,0.5649999976158142,40645,0.0,0.0
2025-03-19 00:00:00+11:00,0.5799999833106995,0.5799999833106995,0.550000011920929,0.550000011920929,89288,0.0,0.0
2025-03-20 00:00:00+11:00,0.5600000023841858,0.5600000023841858,0.5600000023841858,0.5600000023841858,2098,0.0,0.0
2025-03-21 00:00:00+11:00,0.5600000023841858,0.5600000023841858,0.5600000023841858,0.5600000023841858,2099,0.0,0.0
2025-03-24 00:00:00+11:00,0.5600000023841858,0.5600000023841858,0.5600000023841858,0.5600000023841858,0,0.0,0.0
2025-03-25 00:00:00+11:00,0.5600000023841858,0.5600000023841858,0.5600000023841858,0.5600000023841858,0,0.0,0.0
2025-03-26 00:00:00+11:00,0.5699999928474426,0.5699999928474426,0.5699999928474426,0.5699999928474426,4807,0.0,0.0
2025-03-27 00:00:00+11:00,0.5699999928474426,0.5699999928474426,0.5699999928474426,0.5699999928474426,0,0.0,0.0
2025-03-28 00:00:00+11:00,0.5699999928474426,0.5699999928474426,0.5699999928474426,0.5699999928474426,0,0.0,0.0
2025-03-31 00:00:00+11:00,0.5400000214576721,0.5400000214576721,0.5400000214576721,0.5400000214576721,4000,0.0,0.0
2025-04-01 00:00:00+11:00,0.5400000214576721,0.5400000214576721,0.47999998927116394,0.47999998927116394,2805,0.0,0.0
2025-04-02 00:00:00+11:00,0.4699999988079071,0.4699999988079071,0.4699999988079071,0.4699999988079071,5000,0.0,0.0
2025-04-03 00:00:00+11:00,0.4699999988079071,0.4699999988079071,0.4699999988079071,0.4699999988079071,7000,0.0,0.0
2025-04-04 00:00:00+11:00,0.4699999988079071,0.4699999988079071,0.46000000834465027,0.46000000834465027,19492,0.0,0.0
2025-04-07 00:00:00+10:00,0.46000000834465027,0.46000000834465027,0.46000000834465027,0.46000000834465027,591,0.0,0.0
2025-04-08 00:00:00+10:00,0.46000000834465027,0.46000000834465027,0.46000000834465027,0.46000000834465027,0,0.0,0.0
2025-04-09 00:00:00+10:00,0.41999998688697815,0.46000000834465027,0.41999998688697815,0.46000000834465027,8449,0.0,0.0
2025-04-10 00:00:00+10:00,0.44999998807907104,0.4950000047683716,0.44999998807907104,0.4950000047683716,4406,0.0,0.0
2025-04-11 00:00:00+10:00,0.45500001311302185,0.46000000834465027,0.45500001311302185,0.46000000834465027,28654,0.0,0.0
2025-04-14 00:00:00+10:00,0.44999998807907104,0.44999998807907104,0.44999998807907104,0.44999998807907104,755,0.0,0.0
2025-04-15 00:00:00+10:00,0.4749999940395355,0.5249999761581421,0.4749999940395355,0.5249999761581421,55682,0.0,0.0
2025-04-16 00:00:00+10:00,0.5249999761581421,0.5249999761581421,0.5249999761581421,0.5249999761581421,0,0.0,0.0
2025-04-17 00:00:00+10:00,0.5199999809265137,0.5199999809265137,0.5099999904632568,0.5099999904632568,21868,0.0,0.0
2025-04-22 00:00:00+10:00,0.5099999904632568,0.5099999904632568,0.5099999904632568,0.5099999904632568,7606,0.0,0.0
2025-04-23 00:00:00+10:00,0.5074999928474426,0.5149999856948853,0.5074999928474426,0.5149999856948853,12499,0.0,0.0
2025-04-24 00:00:00+10:00,0.5199999809265137,0.5199999809265137,0.5074999928474426,0.5149999856948853,30196,0.0,0.0
2025-04-28 00:00:00+10:00,0.5199999809265137,0.5199999809265137,0.5199999809265137,0.5199999809265137,16199,0.0,0.0
2025-04-29 00:00:00+10:00,0.5099999904632568,0.5099999904632568,0.5,0.5,71947,0.0,0.0
2025-04-30 00:00:00+10:00,0.5,0.5,0.5,0.5,0,0.0,0.0
2025-05-01 00:00:00+10:00,0.5,0.5,0.4699999988079071,0.49000000953674316,31019,0.0,0.0
2025-05-02 00:00:00+10:00,0.4699999988079071,0.5,0.46000000834465027,0.5,26271,0.0,0.0
2025-05-05 00:00:00+10:00,0.5,0.5,0.5,0.5,0,0.0,0.0
2025-05-06 00:00:00+10:00,0.5,0.5,0.5,0.5,0,0.0,0.0
2025-05-07 00:00:00+10:00,0.5,0.5,0.5,0.5,0,0.0,0.0
2025-05-08 00:00:00+10:00,0.5,0.5,0.5,0.5,0,0.0,0.0
2025-05-09 00:00:00+10:00,0.5,0.5,0.5,0.5,0,0.0,0.0
2025-05-12 00:00:00+10:00,0.5,0.5,0.5,0.5,25,0.0,0.0
2025-05-13 00:00:00+10:00,0.5,0.5,0.5,0.5,0,0.0,0.0
2025-05-14 00:00:00+10:00,0.49000000953674316,0.5099999904632568,0.49000000953674316,0.5099999904632568,7389,0.0,0.0
2025-05-15 00:00:00+10:00,0.49000000953674316,0.49000000953674316,0.49000000953674316,0.49000000953674316,1305,0.0,0.0
2025-05-16 00:00:00+10:00,0.49000000953674316,0.49000000953674316,0.49000000953674316,0.49000000953674316,0,0.0,0.0
2025-05-19 00:00:00+10:00,0.49000000953674316,0.5,0.49000000953674316,0.5,110,0.0,0.0
2025-05-20 00:00:00+10:00,0.49000000953674316,0.49000000953674316,0.49000000953674316,0.49000000953674316,6052,0.0,0.0
2025-05-21 00:00:00+10:00,0.49000000953674316,0.49000000953674316,0.48500001430511475,0.49000000953674316,6593,0.0,0.0
2025-05-22 00:00:00+10:00,0.49000000953674316,0.5099999904632568,0.4650000035762787,0.5099999904632568,69740,0.0,0.0
2025-05-23 00:00:00+10:00,0.5249999761581421,0.550000011920929,0.5149999856948853,0.5299999713897705,5215,0.0,0.0
2025-05-26 00:00:00+10:00,0.5299999713897705,0.5299999713897705,0.5299999713897705,0.5299999713897705,3000,0.0,0.0
2025-05-27 00:00:00+10:00,0.4950000047683716,0.4950000047683716,0.4699999988079071,0.48500001430511475,10585,0.0,0.0
2025-05-28 00:00:00+10:00,0.47999998927116394,0.5,0.47999998927116394,0.4950000047683716,7129,0.0,0.0
2025-05-29 00:00:00+10:00,0.4950000047683716,0.4950000047683716,0.4950000047683716,0.4950000047683716,0,0.0,0.0
2025-05-30 00:00:00+10:00,0.5,0.5199999809265137,0.5,0.5199999809265137,46890,0.0,0.0
2025-06-02 00:00:00+10:00,0.5199999809265137,0.5450000166893005,0.5199999809265137,0.5450000166893005,11410,0.0,0.0
2025-06-03 00:00:00+10:00,0.5450000166893005,0.5450000166893005,0.5450000166893005,0.5450000166893005,47339,0.0,0.0
2025-06-04 00:00:00+10:00,0.5450000166893005,0.5450000166893005,0.5450000166893005,0.5450000166893005,0,0.0,0.0
2025-06-05 00:00:00+10:00,0.5450000166893005,0.5450000166893005,0.5450000166893005,0.5450000166893005,0,0.0,0.0
2025-06-06 00:00:00+10:00,0.4699999988079071,0.4699999988079071,0.4699999988079071,0.4699999988079071,1699,0.0,0.0
2025-06-10 00:00:00+10:00,0.46000000834465027,0.46000000834465027,0.46000000834465027,0.46000000834465027,34000,0.0,0.0
2025-06-11 00:00:00+10:00,0.46000000834465027,0.46000000834465027,0.46000000834465027,0.46000000834465027,0,0.0,0.0
2025-06-12 00:00:00+10:00,0.46000000834465027,0.46000000834465027,0.46000000834465027,0.46000000834465027,2000,0.0,0.0
2025-06-13 00:00:00+10:00,0.4699999988079071,0.4699999988079071,0.46000000834465027,0.46000000834465027,21492,0.0,0.0
2025-06-16 00:00:00+10:00,0.46000000834465027,0.46000000834465027,0.46000000834465027,0.46000000834465027,1000,0.0,0.0
2025-06-17 00:00:00+10:00,0.44999998807907104,0.4749999940395355,0.44999998807907104,0.4749999940395355,33325,0.0,0.0
2025-06-18 00:00:00+10:00,0.44999998807907104,0.44999998807907104,0.4399999976158142,0.4399999976158142,7389,0.0,0.0
2025-06-19 00:00:00+10:00,0.4399999976158142,0.4399999976158142,0.4399999976158142,0.4399999976158142,30834,0.0,0.0
2025-06-20 00:00:00+10:00,0.45500001311302185,0.4699999988079071,0.45500001311302185,0.4650000035762787,13459,0.0,0.0
2025-06-23 00:00:00+10:00,0.4650000035762787,0.4650000035762787,0.46000000834465027,0.46000000834465027,15934,0.0,0.0
2025-06-24 00:00:00+10:00,0.45500001311302185,0.45500001311302185,0.4350000023841858,0.4350000023841858,19233,0.0,0.0
2025-06-25 00:00:00+10:00,0.46000000834465027,0.6499999761581421,0.46000000834465027,0.6399999856948853,177193,0.0,0.0
2025-06-26 00:00:00+10:00,0.699999988079071,0.75,0.5899999737739563,0.5899999737739563,514707,0.0,0.0
2025-06-27 00:00:00+10:00,0.6000000238418579,0.6449999809265137,0.6000000238418579,0.6000000238418579,84838,0.0,0.0
2025-06-30 00:00:00+10:00,0.6449999809265137,0.6549999713897705,0.6000000238418579,0.6200000047683716,71546,0.0,0.0
2025-07-01 00:00:00+10:00,0.6200000047683716,0.6200000047683716,0.6000000238418579,0.6000000238418579,34615,0.0,0.0
2025-07-02 00:00:00+10:00,0.6000000238418579,0.6000000238418579,0.5699999928474426,0.5849999785423279,55537,0.0,0.0
2025-07-03 00:00:00+10:00,0.5899999737739563,0.5899999737739563,0.5799999833106995,0.5799999833106995,39954,0.0,0.0
2025-07-04 00:00:00+10:00,0.574999988079071,0.574999988079071,0.5699999928474426,0.5699999928474426,14965,0.0,0.0
2025-07-07 00:00:00+10:00,0.574999988079071,0.574999988079071,0.5699999928474426,0.5699999928474426,28011,0.0,0.0
2025-07-08 00:00:00+10:00,0.5699999928474426,0.5699999928474426,0.5600000023841858,0.5600000023841858,38478,0.0,0.0
2025-07-09 00:00:00+10:00,0.5699999928474426,0.5699999928474426,0.550000011920929,0.550000011920929,37768,0.0,0.0
2025-07-10 00:00:00+10:00,0.5600000023841858,0.5699999928474426,0.5600000023841858,0.5699999928474426,6534,0.0,0.0
2025-07-11 00:00:00+10:00,0.5950000286102295,0.6000000238418579,0.5699999928474426,0.5699999928474426,56660,0.0,0.0
2025-07-14 00:00:00+10:00,0.5799999833106995,0.6299999952316284,0.5799999833106995,0.6299999952316284,23177,0.0,0.0
2025-07-15 00:00:00+10:00,0.6499999761581421,0.7400000095367432,0.6499999761581421,0.6850000023841858,74496,0.0,0.0
2025-07-16 00:00:00+10:00,0.7200000286102295,0.7900000214576721,0.6949999928474426,0.7900000214576721,103702,0.0,0.0
2025-07-17 00:00:00+10:00,0.75,0.75,0.7400000095367432,0.7400000095367432,49464,0.0,0.0
2025-07-18 00:00:00+10:00,0.7400000095367432,0.7749999761581421,0.7400000095367432,0.7749999761581421,3399,0.0,0.0
2025-07-21 00:00:00+10:00,0.7900000214576721,0.7900000214576721,0.7749999761581421,0.7799999713897705,27562,0.0,0.0
2025-07-22 00:00:00+10:00,0.7850000262260437,0.7850000262260437,0.7850000262260437,0.7850000262260437,2000,0.0,0.0
2025-07-23 00:00:00+10:00,0.7099999785423279,0.7400000095367432,0.699999988079071,0.699999988079071,115416,0.0,0.0
2025-07-24 00:00:00+10:00,0.7200000286102295,0.7200000286102295,0.6850000023841858,0.6899999976158142,29111,0.0,0.0
2025-07-25 00:00:00+10:00,0.6899999976158142,0.7200000286102295,0.6899999976158142,0.7099999785423279,327,0.0,0.0
2025-07-28 00:00:00+10:00,0.7250000238418579,0.7275000214576721,0.6800000071525574,0.6899999976158142,45577,0.0,0.0
2025-07-29 00:00:00+10:00,0.6899999976158142,0.6899999976158142,0.6700000166893005,0.6700000166893005,6654,0.0,0.0
2025-07-30 00:00:00+10:00,0.6299999952316284,0.6349999904632568,0.6050000190734863,0.6100000143051147,100942,0.0,0.0
2025-07-31 00:00:00+10:00,0.625,0.6299999952316284,0.5600000023841858,0.5600000023841858,17825,0.0,0.0
2025-08-01 00:00:00+10:00,0.5600000023841858,0.5600000023841858,0.5400000214576721,0.5400000214576721,36911,0.0,0.0
2025-08-04 00:00:00+10:00,0.6200000047683716,0.6200000047683716,0.6200000047683716,0.6200000047683716,10000,0.0,0.0
2025-08-05 00:00:00+10:00,0.6200000047683716,0.6349999904632568,0.6200000047683716,0.6349999904632568,3507,0.0,0.0
2025-08-06 00:00:00+10:00,0.6000000238418579,0.6000000238418579,0.6000000238418579,0.6000000238418579,3544,0.0,0.0
2025-08-07 00:00:00+10:00,0.6200000047683716,0.6299999952316284,0.6000000238418579,0.6299999952316284,13267,0.0,0.0
2025-08-08 00:00:00+10:00,0.6100000143051147,0.6800000071525574,0.6100000143051147,0.6449999809265137,86830,0.0,0.0
2025-08-11 00:00:00+10:00,0.6650000214576721,0.6800000071525574,0.6399999856948853,0.6499999761581421,109421,0.0,0.0
2025-08-12 00:00:00+10:00,0.6800000071525574,0.7250000238418579,0.675000011920929,0.699999988079071,155992,0.0,0.0
2025-08-13 00:00:00+10:00,0.7099999785423279,0.7099999785423279,0.6949999928474426,0.699999988079071,64623,0.0,0.0
2025-08-14 00:00:00+10:00,0.699999988079071,0.699999988079071,0.699999988079071,0.699999988079071,43625,0.0,0.0
2025-08-15 00:00:00+10:00,0.6800000071525574,0.6800000071525574,0.6800000071525574,0.6800000071525574,3489,0.0,0.0
2025-08-18 00:00:00+10:00,0.6899999976158142,0.7250000238418579,0.6899999976158142,0.699999988079071,41989,0.0,0.0
2025-08-19 00:00:00+10:00,0.7200000286102295,0.7200000286102295,0.699999988079071,0.699999988079071,41488,0.0,0.0
2025-08-20 00:00:00+10:00,0.699999988079071,0.7200000286102295,0.6899999976158142,0.6899999976158142,17586,0.0,0.0
2025-08-21 00:00:00+10:00,0.32499998807907104,0.35499998927116394,0.32499998807907104,0.35499998927116394,25578,0.0,0.0
2025-08-22 00:00:00+10:00,0.3700000047683716,0.4000000059604645,0.3700000047683716,0.4000000059604645,210651,0.0,0.0
2025-08-25 00:00:00+10:00,0.3799999952316284,0.3799999952316284,0.36000001430511475,0.3700000047683716,36297,0.0,0.0
2025-08-26 00:00:00+10:00,0.4000000059604645,0.4300000071525574,0.4000000059604645,0.4300000071525574,167660,0.0,0.0
2025-08-27 00:00:00+10:00,0.4399999976158142,0.4699999988079071,0.4399999976158142,0.44999998807907104,100750,0.0,0.0
2025-08-28 00:00:00+10:00,0.44999998807907104,0.44999998807907104,0.4399999976158142,0.4399999976158142,13906,0.0,0.0
2025-08-29 00:00:00+10:00,0.4399999976158142,0.4399999976158142,0.4399999976158142,0.4399999976158142,2350,0.0,0.0
2025-09-01 00:00:00+10:00,0.4399999976158142,0.4399999976158142,0.4300000071525574,0.4300000071525574,15190,0.0,0.0
2025-09-02 00:00:00+10:00,0.44999998807907104,0.4699999988079071,0.44999998807907104,0.45500001311302185,200500,0.0,0.0
2025-09-03 00:00:00+10:00,0.46000000834465027,0.5,0.46000000834465027,0.5,139498,0.0,0.0
2025-09-04 00:00:00+10:00,0.5,0.5099999904632568,0.46000000834465027,0.46000000834465027,96154,0.0,0.0
2025-09-05 00:00:00+10:00,0.5,0.550000011920929,0.49000000953674316,0.49000000953674316,205081,0.0,0.0
2025-09-08 00:00:00+10:00,0.49000000953674316,0.49000000953674316,0.46000000834465027,0.49000000953674316,16211,0.0,0.0
2025-09-09 00:00:00+10:00,0.49000000953674316,0.49000000953674316,0.46000000834465027,0.49000000953674316,67904,0.0,0.0
2025-09-10 00:00:00+10:00,0.49000000953674316,0.49000000953674316,0.44999998807907104,0.49000000953674316,12388,0.0,0.0
2025-09-11 00:00:00+10:00,0.47999998927116394,0.47999998927116394,0.4099999964237213,0.41999998688697815,212589,0.0,0.0
2025-09-12 00:00:00+10:00,0.41999998688697815,0.41999998688697815,0.4050000011920929,0.4124999940395355,164099,0.0,0.0
2025-09-15 00:00:00+10:00,0.41499999165534973,0.41999998688697815,0.41499999165534973,0.41999998688697815,24630,0.0,0.0
2025-09-16 00:00:00+10:00,0.41999998688697815,0.41999998688697815,0.38999998569488525,0.4050000011920929,157005,0.0,0.0
2025-09-17 00:00:00+10:00,0.41499999165534973,0.46000000834465027,0.41499999165534973,0.45500001311302185,107754,0.0,0.0
2025-09-18 00:00:00+10:00,0.45500001311302185,0.45500001311302185,0.41999998688697815,0.4350000023841858,159142,0.0,0.0
2025-09-19 00:00:00+10:00,0.4399999976158142,0.4399999976158142,0.42500001192092896,0.42500001192092896,25894,0.0,0.0
2025-09-22 00:00:00+10:00,0.42500001192092896,0.44999998807907104,0.41999998688697815,0.44999998807907104,39013,0.0,0.0
2025-09-23 00:00:00+10:00,0.42500001192092896,0.42500001192092896,0.41499999165534973,0.41499999165534973,60109,0.0,0.0
2025-09-24 00:00:00+10:00,0.42500001192092896,0.42500001192092896,0.41499999165534973,0.42500001192092896,12397,0.0,0.0
2025-09-25 00:00:00+10:00,0.42500001192092896,0.42500001192092896,0.4000000059604645,0.4000000059604645,68073,0.0,0.0
2025-09-26 00:00:00+10:00,0.42500001192092896,0.42500001192092896,0.4050000011920929,0.41499999165534973,14980,0.0,0.0
2025-09-29 00:00:00+10:00,0.4300000071525574,0.4300000071525574,0.41499999165534973,0.41499999165534973,8918,0.0,0.0
2025-09-30 00:00:00+10:00,0.41999998688697815,0.48500001430511475,0.41999998688697815,0.48500001430511475,93620,0.0,0.0
2025-10-01 00:00:00+10:00,0.48500001430511475,0.48500001430511475,0.48500001430511475,0.48500001430511475,831,0.0,0.0
2025-10-02 00:00:00+10:00,0.4699999988079071,0.4699999988079071,0.4300000071525574,0.4300000071525574,63895,0.0,0.0
2025-10-03 00:00:00+10:00,0.4399999976158142,0.4399999976158142,0.42500001192092896,0.4399999976158142,16109,0.0,0.0
2025-10-06 00:00:00+11:00,0.44999998807907104,0.5,0.44999998807907104,0.5,64203,0.0,0.0
2025-10-07 00:00:00+11:00,0.5,0.5049999952316284,0.47999998927116394,0.5,240731,0.0,0.0
2025-10-08 00:00:00+11:00,0.5049999952316284,0.5450000166893005,0.5,0.5099999904632568,209672,0.0,0.0
2025-10-09 00:00:00+11:00,0.5149999856948853,0.550000011920929,0.5149999856948853,0.5299999713897705,174071,0.0,0.0
2025-10-10 00:00:00+11:00,0.5600000023841858,0.6200000047683716,0.5600000023841858,0.6000000238418579,229963,0.0,0.0
2025-10-13 00:00:00+11:00,0.6299999952316284,0.7400000095367432,0.6299999952316284,0.699999988079071,457550,0.0,0.0
2025-10-14 00:00:00+11:00,0.7400000095367432,0.7900000214576721,0.7174999713897705,0.7200000286102295,884776,0.0,0.0
2025-10-15 00:00:00+11:00,0.7200000286102295,0.7200000286102295,0.6600000262260437,0.699999988079071,900966,0.0,0.0
2025-10-16 00:00:00+11:00,0.6700000166893005,0.6899999976158142,0.6200000047683716,0.6399999856948853,207153,0.0,0.0
2025-10-17 00:00:00+11:00,0.6600000262260437,0.6600000262260437,0.6200000047683716,0.6449999809265137,71405,0.0,0.0
2025-10-20 00:00:00+11:00,0.6600000262260437,0.7200000286102295,0.6600000262260437,0.699999988079071,781124,0.0,0.0
2025-10-21 00:00:00+11:00,0.7149999737739563,0.8949999809265137,0.7149999737739563,0.8600000143051147,1061893,0.0,0.0
2025-10-22 00:00:00+11:00,0.8999999761581421,1.100000023841858,0.8949999809265137,1.0750000476837158,1741968,0.0,0.0
2025-10-23 00:00:00+11:00,1.1950000524520874,1.340000033378601,0.9300000071525574,1.0800000429153442,2391671,0.0,0.0
2025-10-24 00:00:00+11:00,1.1200000047683716,1.1349999904632568,0.9100000262260437,0.9150000214576721,839027,0.0,0.0
2025-10-27 00:00:00+11:00,0.9399999976158142,0.9700000286102295,0.8100000023841858,0.8149999976158142,814162,0.0,0.0
2025-10-28 00:00:00+11:00,0.8299999833106995,0.8349999785423279,0.6700000166893005,0.6899999976158142,741554,0.0,0.0
2025-10-29 00:00:00+11:00,0.7200000286102295,0.7699999809265137,0.699999988079071,0.7099999785423279,406144,0.0,0.0
2025-10-30 00:00:00+11:00,0.7400000095367432,0.8650000095367432,0.7350000143051147,0.7599999904632568,316598,0.0,0.0
2025-10-31 00:00:00+11:00,0.8199999928474426,0.8500000238418579,0.800000011920929,0.8050000071525574,282276,0.0,0.0
2025-11-03 00:00:00+11:00,0.8299999833106995,0.8299999833106995,0.7549999952316284,0.7599999904632568,204699,0.0,0.0
2025-11-04 00:00:00+11:00,0.800000011920929,0.8349999785423279,0.7749999761581421,0.7900000214576721,74622,0.0,0.0
2025-11-05 00:00:00+11:00,0.8100000023841858,0.8500000238418579,0.7599999904632568,0.8100000023841858,172599,0.0,0.0
2025-11-06 00:00:00+11:00,0.824999988079071,0.862500011920929,0.800000011920929,0.8199999928474426,196871,0.0,0.0
2025-11-07 00:00:00+11:00,0.8600000143051147,0.875,0.7699999809265137,0.800000011920929,328815,0.0,0.0
2025-11-10 00:00:00+11:00,0.800000011920929,0.8349999785423279,0.699999988079071,0.699999988079071,538643,0.0,0.0
2025-11-11 00:00:00+11:00,0.7099999785423279,0.7300000190734863,0.699999988079071,0.7300000190734863,117219,0.0,0.0
2025-11-12 00:00:00+11:00,0.7350000143051147,0.75,0.7300000190734863,0.75,40396,0.0,0.0
2025-11-13 00:00:00+11:00,0.75,0.7549999952316284,0.7099999785423279,0.7450000047683716,140046,0.0,0.0
2025-11-14 00:00:00+11:00,0.7200000286102295,0.7250000238418579,0.6949999928474426,0.699999988079071,228225,0.0,0.0
2025-11-17 00:00:00+11:00,0.7300000190734863,0.8550000190734863,0.7049999833106995,0.8550000190734863,1212945,0.0,0.0
2025-11-18 00:00:00+11:00,0.8600000143051147,0.8700000047683716,0.7799999713897705,0.7850000262260437,314143,0.0,0.0
2025-11-19 00:00:00+11:00,0.7900000214576721,0.9150000214576721,0.7900000214576721,0.8500000238418579,404114,0.0,0.0
2025-11-20 00:00:00+11:00,0.8999999761581421,0.8999999761581421,0.7950000166893005,0.800000011920929,327129,0.0,0.0
2025-11-21 00:00:00+11:00,0.7950000166893005,0.8299999833106995,0.7649999856948853,0.7799999713897705,381660,0.0,0.0
2025-11-24 00:00:00+11:00,0.7850000262260437,0.800000011920929,0.7799999713897705,0.7799999713897705,132239,0.0,0.0
2025-11-25 00:00:00+11:00,0.800000011920929,0.8199999928474426,0.7799999713897705,0.8199999928474426,62217,0.0,0.0
2025-11-26 00:00:00+11:00,0.8299999833106995,0.8500000238418579,0.7799999713897705,0.8100000023841858,292156,0.0,0.0
2025-11-27 00:00:00+11:00,0.8399999737739563,0.8399999737739563,0.7900000214576721,0.800000011920929,161430,0.0,0.0
2025-11-28 00:00:00+11:00,0.800000011920929,0.8600000143051147,0.800000011920929,0.8149999976158142,233691,0.0,0.0
2025-12-01 00:00:00+11:00,0.8399999737739563,0.8399999737739563,0.7649999856948853,0.7649999856948853,336015,0.0,0.0
2025-12-02 00:00:00+11:00,0.7699999809265137,0.7950000166893005,0.7699999809265137,0.7699999809265137,80286,0.0,0.0
2025-12-03 00:00:00+11:00,0.7799999713897705,0.7799999713897705,0.7599999904632568,0.7699999809265137,60291,0.0,0.0
2025-12-04 00:00:00+11:00,0.7649999856948853,0.7799999713897705,0.75,0.75,82037,0.0,0.0
2025-12-05 00:00:00+11:00,0.75,0.7524999976158142,0.7400000095367432,0.7450000047683716,41126,0.0,0.0
2025-12-08 00:00:00+11:00,0.7450000047683716,0.7450000047683716,0.7049999833106995,0.7149999737739563,146308,0.0,0.0
2025-12-09 00:00:00+11:00,0.7200000286102295,0.7200000286102295,0.699999988079071,0.7149999737739563,58463,0.0,0.0
2025-12-10 00:00:00+11:00,0.7200000286102295,0.7200000286102295,0.699999988079071,0.7099999785423279,39797,0.0,0.0
2025-12-11 00:00:00+11:00,0.7099999785423279,0.7574999928474426,0.7049999833106995,0.7200000286102295,204932,0.0,0.0
2025-12-12 00:00:00+11:00,0.7300000190734863,0.7450000047683716,0.7200000286102295,0.7450000047683716,166161,0.0,0.0
2025-12-15 00:00:00+11:00,0.7400000095367432,0.7450000047683716,0.699999988079071,0.7099999785423279,137578,0.0,0.0
2025-12-16 00:00:00+11:00,0.7250000238418579,0.7250000238418579,0.6949999928474426,0.7049999833106995,58264,0.0,0.0
2025-12-17 00:00:00+11:00,0.7049999833106995,0.7149999737739563,0.6949999928474426,0.7099999785423279,41902,0.0,0.0
2025-12-18 00:00:00+11:00,0.7099999785423279,0.7099999785423279,0.6949999928474426,0.699999988079071,10724,0.0,0.0
2025-12-19 00:00:00+11:00,0.6949999928474426,0.6949999928474426,0.6549999713897705,0.6549999713897705,131329,0.0,0.0
2025-12-22 00:00:00+11:00,0.6700000166893005,0.675000011920929,0.6549999713897705,0.6650000214576721,92920,0.0,0.0
2025-12-23 00:00:00+11:00,0.6600000262260437,0.6700000166893005,0.6600000262260437,0.6600000262260437,15388,0.0,0.0
2025-12-24 00:00:00+11:00,0.6700000166893005,0.6700000166893005,0.6499999761581421,0.6650000214576721,49015,0.0,0.0
2025-12-29 00:00:00+11:00,0.6650000214576721,0.675000011920929,0.6549999713897705,0.675000011920929,19761,0.0,0.0
2025-12-30 00:00:00+11:00,0.6800000071525574,0.6800000071525574,0.6700000166893005,0.6800000071525574,109290,0.0,0.0
2025-12-31 00:00:00+11:00,0.6800000071525574,0.7049999833106995,0.6800000071525574,0.699999988079071,235707,0.0,0.0
2026-01-02 00:00:00+11:00,0.7200000286102295,0.7200000286102295,0.6949999928474426,0.6949999928474426,56216,0.0,0.0
